 # time [a.u.]         RMT-1           RMT-3           RMT-6             SAE        ATTOMESA
 0.00000000E+00  0.00000000E+00  0.00000000E+00  0.00000000E+00  0.00000000E+00  0.00000000E+00
 1.00000000E-01  8.89786863E-12  8.47926662E-12  8.46668337E-12  9.39628496E-12 -8.26414042E-12
 2.00000000E-01  1.40665897E-10  1.34064798E-10  1.33863443E-10  1.40415996E-10 -1.32915639E-10
 3.00000000E-01  7.03364397E-10  6.70511155E-10  6.69485328E-10  6.89357155E-10 -6.68690485E-10
 4.00000000E-01  2.19096166E-09  2.08926172E-09  2.08598352E-09  2.13043409E-09 -2.08946158E-09
 5.00000000E-01  5.26185561E-09  5.01937183E-09  5.01124547E-09  5.09861036E-09 -5.02841691E-09
 6.00000000E-01  1.07156851E-08  1.02256825E-08  1.02085165E-08  1.03704266E-08 -1.02532107E-08
 7.00000000E-01  1.94697152E-08  1.85863998E-08  1.85539303E-08  1.88438142E-08 -1.86409126E-08
 8.00000000E-01  3.25356544E-08  3.10708998E-08  3.10142797E-08  3.15175262E-08 -3.11557776E-08
 9.00000000E-01  5.09970440E-08  4.87179105E-08  4.86251865E-08  4.94706202E-08 -4.88268650E-08
 1.00000000E+00  7.59880603E-08  7.26149309E-08  7.24705355E-08  7.38423018E-08 -7.27265103E-08
 1.10000000E+00  1.08672988E-07  1.03878224E-07  1.03662517E-07  1.05812359E-07 -1.03952269E-07
 1.20000000E+00  1.50227190E-07  1.43634213E-07  1.43323099E-07  1.46582358E-07 -1.43609789E-07
 1.30000000E+00  2.01819821E-07  1.93002585E-07  1.92567240E-07  1.97357723E-07 -1.92796605E-07
 1.40000000E+00  2.64597068E-07  2.53079958E-07  2.52486691E-07  2.59330803E-07 -2.52589728E-07
 1.50000000E+00  3.39666671E-07  3.24924866E-07  3.24135133E-07  3.33664998E-07 -3.24034116E-07
 1.60000000E+00  4.28085049E-07  4.09545315E-07  4.08515893E-07  4.21479974E-07 -4.08129889E-07
 1.70000000E+00  5.30844845E-07  5.07886890E-07  5.06570214E-07  5.23838035E-07 -5.05821231E-07
 1.80000000E+00  6.48862822E-07  6.20821299E-07  6.19165969E-07  6.41731643E-07 -6.17985630E-07
 1.90000000E+00  7.82969881E-07  7.49137049E-07  7.47088480E-07  7.76072105E-07 -7.45421249E-07
 2.00000000E+00  9.33903174E-07  8.93532149E-07  8.91033345E-07  9.27679442E-07 -8.88835954E-07
 2.10000000E+00  1.10229900E-06  1.05460768E-06  1.05160010E-06  1.09727340E-06 -1.04883818E-06
 2.20000000E+00  1.28868537E-06  1.23286109E-06  1.22928556E-06  1.28546562E-06 -1.22592682E-06
 2.30000000E+00  1.49347536E-06  1.42868032E-06  1.42447808E-06  1.49275294E-06 -1.42048267E-06
 2.40000000E+00  1.71696387E-06  1.64234098E-06  1.63745464E-06  1.71951177E-06 -1.63276250E-06
 2.50000000E+00  1.95932576E-06  1.87400492E-06  1.86837943E-06  1.96599355E-06 -1.86289258E-06
 2.60000000E+00  2.22061291E-06  2.12371774E-06  2.11730129E-06  2.23232127E-06 -2.11086361E-06
 2.70000000E+00  2.50075163E-06  2.39140660E-06  2.38415146E-06  2.51848694E-06 -2.37652913E-06
 2.80000000E+00  2.79954128E-06  2.67687912E-06  2.66874245E-06  2.82435006E-06 -2.65960473E-06
 2.90000000E+00  3.11665457E-06  2.97982365E-06  2.97076820E-06  3.14963695E-06 -2.95966848E-06
 3.00000000E+00  3.45163994E-06  3.29981161E-06  3.28980620E-06  3.49394104E-06 -3.27616542E-06
 3.10000000E+00  3.80392465E-06  3.63630012E-06  3.62532016E-06  3.85672388E-06 -3.60841275E-06
 3.20000000E+00  4.17281621E-06  3.98863347E-06  3.97666121E-06  4.23731701E-06 -3.95560450E-06
 3.30000000E+00  4.55750336E-06  4.35604381E-06  4.34306865E-06  4.63492453E-06 -4.31681799E-06
 3.40000000E+00  4.95705822E-06  4.73765303E-06  4.72367171E-06  5.04862630E-06 -4.69102041E-06
 3.50000000E+00  5.37044182E-06  5.13247771E-06  5.11749434E-06  5.47738187E-06 -5.07707358E-06
 3.60000000E+00  5.79651114E-06  5.53943532E-06  5.52346137E-06  5.92003491E-06 -5.47374054E-06
 3.70000000E+00  6.23402431E-06  5.95734888E-06  5.94040305E-06  6.37531819E-06 -5.87969347E-06
 3.80000000E+00  6.68164481E-06  6.38495075E-06  6.36705882E-06  6.84185902E-06 -6.29352017E-06
 3.90000000E+00  7.13794661E-06  6.82088726E-06  6.80208186E-06  7.31818517E-06 -6.71373145E-06
 4.00000000E+00  7.60141878E-06  7.26372300E-06  7.24404345E-06  7.80273113E-06 -7.13876925E-06
 4.10000000E+00  8.07047098E-06  7.71194584E-06  7.69143785E-06  8.29384468E-06 -7.56701274E-06
 4.20000000E+00  8.54344090E-06  8.16397372E-06  8.14268915E-06  8.78979378E-06 -7.99678462E-06
 4.30000000E+00  9.01860333E-06  8.61816307E-06  8.59615954E-06  9.28877368E-06 -8.42635997E-06
 4.40000000E+00  9.49417876E-06  9.07281691E-06  9.05015741E-06  9.78891421E-06 -8.85397480E-06
 4.50000000E+00  9.96833967E-06  9.52619088E-06  9.50294342E-06  1.02882872E-05 -9.27783514E-06
 4.60000000E+00  1.04392146E-05  9.97649741E-06  9.95273467E-06  1.07849142E-05 -9.69612837E-06
 4.70000000E+00  1.09048932E-05  1.04219106E-05  1.03977096E-05  1.12767736E-05 -1.01070334E-05
 4.80000000E+00  1.13634323E-05  1.08605726E-05  1.08360144E-05  1.17618088E-05 -1.05087283E-05
 4.90000000E+00  1.18128651E-05  1.12906014E-05  1.12657706E-05  1.22379356E-05 -1.08993990E-05
 5.00000000E+00  1.22512104E-05  1.17101006E-05  1.16850852E-05  1.27030495E-05 -1.12772469E-05
 5.10000000E+00  1.26764811E-05  1.21171674E-05  1.20920581E-05  1.31550334E-05 -1.16404938E-05
 5.20000000E+00  1.30866895E-05  1.25098977E-05  1.24847878E-05  1.35917650E-05 -1.19873885E-05
 5.30000000E+00  1.34798521E-05  1.28863910E-05  1.28613759E-05  1.40111235E-05 -1.23162131E-05
 5.40000000E+00  1.38539958E-05  1.32447569E-05  1.32199333E-05  1.44109970E-05 -1.26252854E-05
 5.50000000E+00  1.42071623E-05  1.35831193E-05  1.35585855E-05  1.47892890E-05 -1.29129620E-05
 5.60000000E+00  1.45374131E-05  1.38996212E-05  1.38754763E-05  1.51439252E-05 -1.31776409E-05
 5.70000000E+00  1.48428340E-05  1.41924292E-05  1.41687726E-05  1.54728592E-05 -1.34177627E-05
 5.80000000E+00  1.51215430E-05  1.44597409E-05  1.44366722E-05  1.57740789E-05 -1.36318128E-05
 5.90000000E+00  1.53716988E-05  1.46997930E-05  1.46774111E-05  1.60456120E-05 -1.38183271E-05
 6.00000000E+00  1.55915066E-05  1.49108668E-05  1.48892696E-05  1.62855312E-05 -1.39758955E-05
 6.10000000E+00  1.57792222E-05  1.50912918E-05  1.50705753E-05  1.64919595E-05 -1.41031655E-05
 6.20000000E+00  1.59331529E-05  1.52394470E-05  1.52197053E-05  1.66630745E-05 -1.41988457E-05
 6.30000000E+00  1.60516581E-05  1.53537618E-05  1.53350857E-05  1.67971127E-05 -1.42617072E-05
 6.40000000E+00  1.61331511E-05  1.54327171E-05  1.54151943E-05  1.68923736E-05 -1.42905837E-05
 6.50000000E+00  1.61761029E-05  1.54748492E-05  1.54585637E-05  1.69472231E-05 -1.42843730E-05
 6.60000000E+00  1.61790479E-05  1.54787546E-05  1.54637860E-05  1.69600966E-05 -1.42420372E-05
 6.70000000E+00  1.61405880E-05  1.54430939E-05  1.54295171E-05  1.69295018E-05 -1.41626025E-05
 6.80000000E+00  1.60593971E-05  1.53665960E-05  1.53544806E-05  1.68540213E-05 -1.40451577E-05
 6.90000000E+00  1.59342227E-05  1.52480590E-05  1.52374688E-05  1.67323142E-05 -1.38888537E-05
 7.00000000E+00  1.57638860E-05  1.50863509E-05  1.50773437E-05  1.65631180E-05 -1.36928983E-05
 7.10000000E+00  1.55472805E-05  1.48804080E-05  1.48730352E-05  1.63452497E-05 -1.34565543E-05
 7.20000000E+00  1.52833704E-05  1.46292338E-05  1.46235405E-05  1.60776070E-05 -1.31791383E-05
 7.30000000E+00  1.49711928E-05  1.43319007E-05  1.43279255E-05  1.57591684E-05 -1.28600173E-05
 7.40000000E+00  1.46098567E-05  1.39875494E-05  1.39853246E-05  1.53889936E-05 -1.24986084E-05
 7.50000000E+00  1.41985421E-05  1.35953878E-05  1.35949394E-05  1.49662235E-05 -1.20943780E-05
 7.60000000E+00  1.37364990E-05  1.31546905E-05  1.31560390E-05  1.44900795E-05 -1.16468402E-05
 7.70000000E+00  1.32230497E-05  1.26648009E-05  1.26679609E-05  1.39598629E-05 -1.11555547E-05
 7.80000000E+00  1.26575917E-05  1.21251335E-05  1.21301146E-05  1.33749535E-05 -1.06201269E-05
 7.90000000E+00  1.20395988E-05  1.15351752E-05  1.15419821E-05  1.27348089E-05 -1.00402068E-05
 8.00000000E+00  1.13686186E-05  1.08944832E-05  1.09031158E-05  1.20389620E-05 -9.41548700E-06
 8.10000000E+00  1.06442666E-05  1.02026800E-05  1.02131343E-05  1.12870202E-05 -8.74570299E-06
 8.20000000E+00  9.86622121E-06  9.45944863E-06  9.47171711E-06  1.04786624E-05 -8.03063095E-06
 8.30000000E+00  9.03421799E-06  8.66452809E-06  8.67860048E-06  9.61363744E-06 -7.27008413E-06
 8.40000000E+00  8.14804916E-06  7.81771267E-06  7.83357651E-06  8.69176114E-06 -6.46391026E-06
 8.50000000E+00  7.20756321E-06  6.91885150E-06  6.93649276E-06  7.71291404E-06 -5.61198827E-06
 8.60000000E+00  6.21266448E-06  5.96784801E-06  5.98725149E-06  6.67703853E-06 -4.71422340E-06
 8.70000000E+00  5.16331341E-06  4.96466005E-06  4.98580981E-06  5.58413599E-06 -3.77054454E-06
 8.80000000E+00  4.05952650E-06  3.90929981E-06  3.93217949E-06  4.43426383E-06 -2.78090291E-06
 8.90000000E+00  2.90137379E-06  2.80183154E-06  2.82642468E-06  3.22753251E-06 -1.74526983E-06
 9.00000000E+00  1.68897413E-06  1.64236717E-06  1.66865758E-06  1.96410238E-06 -6.63636530E-07
 9.10000000E+00  4.22489791E-07  4.31061320E-07  4.59033474E-07  6.44180625E-07  4.63984881E-07
 9.20000000E+00 -8.97877608E-07 -8.31892577E-07 -8.02253197E-07 -7.31981902E-07  1.63756267E-06
 9.30000000E+00 -2.27189055E-06 -2.14626559E-06 -2.11497211E-06 -2.16409379E-06  2.85704660E-06
 9.40000000E+00 -3.69927971E-06 -3.51179726E-06 -3.47886102E-06 -3.65182617E-06  4.12236755E-06
 9.50000000E+00 -5.17974656E-06 -4.92819827E-06 -4.89362845E-06 -5.19481577E-06  5.43343828E-06
 9.60000000E+00 -6.71296419E-06 -6.39515153E-06 -6.35895471E-06 -6.79266788E-06  6.79015360E-06
 9.70000000E+00 -8.29857859E-06 -7.91231353E-06 -7.87449334E-06 -8.44495929E-06  8.19238845E-06
 9.80000000E+00 -9.93621008E-06 -9.47931611E-06 -9.43987279E-06 -1.01512411E-05  9.63999835E-06
 9.90000000E+00 -1.16254545E-05 -1.10957678E-05 -1.10546978E-05 -1.19110412E-05  1.11328222E-05
 1.00000000E+01 -1.33658846E-05 -1.27612550E-05 -1.27185509E-05 -1.37238671E-05  1.26706847E-05
 1.01000000E+01 -1.51570501E-05 -1.44753429E-05 -1.44309925E-05 -1.55892084E-05  1.42533993E-05
 1.02000000E+01 -1.69984789E-05 -1.62375759E-05 -1.61915625E-05 -1.75065385E-05  1.58807717E-05
 1.03000000E+01 -1.88896799E-05 -1.80474806E-05 -1.79997822E-05 -1.94753171E-05  1.75525987E-05
 1.04000000E+01 -2.08301489E-05 -1.99045710E-05 -1.98551600E-05 -2.14949922E-05  1.92686661E-05
 1.05000000E+01 -2.28193762E-05 -2.18083556E-05 -2.17571984E-05 -2.35650014E-05  2.10287462E-05
 1.06000000E+01 -2.48568505E-05 -2.37583409E-05 -2.37053971E-05 -2.56847736E-05  2.28325957E-05
 1.07000000E+01 -2.69420572E-05 -2.57540297E-05 -2.56992522E-05 -2.78537304E-05  2.46799540E-05
 1.08000000E+01 -2.90744735E-05 -2.77949174E-05 -2.77382517E-05 -3.00712868E-05  2.65705445E-05
 1.09000000E+01 -3.12535661E-05 -2.98804890E-05 -2.98218733E-05 -3.23368526E-05  2.85040748E-05
 1.10000000E+01 -3.34787882E-05 -3.20102176E-05 -3.19495828E-05 -3.46498324E-05  3.04802357E-05
 1.11000000E+01 -3.57495797E-05 -3.41835634E-05 -3.41208332E-05 -3.70096266E-05  3.24986997E-05
 1.12000000E+01 -3.80653680E-05 -3.63999747E-05 -3.63350658E-05 -3.94156311E-05  3.45591194E-05
 1.13000000E+01 -4.04255702E-05 -3.86588896E-05 -3.85917122E-05 -4.18672377E-05  3.66611241E-05
 1.14000000E+01 -4.28295957E-05 -4.09597384E-05 -4.08901959E-05 -4.43638332E-05  3.88043185E-05
 1.15000000E+01 -4.52768471E-05 -4.33019440E-05 -4.32299341E-05 -4.69047998E-05  4.09882838E-05
 1.16000000E+01 -4.77667205E-05 -4.56849228E-05 -4.56103372E-05 -4.94895135E-05  4.32125766E-05
 1.17000000E+01 -5.02986066E-05 -4.81080845E-05 -4.80308100E-05 -5.21173438E-05  4.54767295E-05
 1.18000000E+01 -5.28718886E-05 -5.05708314E-05 -5.04907497E-05 -5.47876523E-05  4.77802522E-05
 1.19000000E+01 -5.54859405E-05 -5.30725561E-05 -5.29895445E-05 -5.74997914E-05  5.01226298E-05
 1.20000000E+01 -5.81401242E-05 -5.56126393E-05 -5.55265714E-05 -6.02531030E-05  5.25033211E-05
 1.21000000E+01 -6.08337862E-05 -5.81904463E-05 -5.81011926E-05 -6.30469168E-05  5.49217588E-05
 1.22000000E+01 -6.35662525E-05 -6.08053237E-05 -6.07127523E-05 -6.58805480E-05  5.73773470E-05
 1.23000000E+01 -6.63368276E-05 -6.34565977E-05 -6.33605753E-05 -6.87532962E-05  5.98694582E-05
 1.24000000E+01 -6.91447933E-05 -6.61435732E-05 -6.60439659E-05 -7.16644424E-05  6.23974314E-05
 1.25000000E+01 -7.19894069E-05 -6.88655327E-05 -6.87622062E-05 -7.46132474E-05  6.49605680E-05
 1.26000000E+01 -7.48698982E-05 -7.16217326E-05 -7.15145532E-05 -7.75989489E-05  6.75581269E-05
 1.27000000E+01 -7.77854670E-05 -7.44114016E-05 -7.43002368E-05 -8.06207595E-05  7.01893227E-05
 1.28000000E+01 -8.07352840E-05 -7.72337413E-05 -7.71184602E-05 -8.36778640E-05  7.28533240E-05
 1.29000000E+01 -8.37184911E-05 -8.00879268E-05 -7.99684007E-05 -8.67694167E-05  7.55492532E-05
 1.30000000E+01 -8.67342013E-05 -8.29731056E-05 -8.28492087E-05 -8.98945387E-05  7.82761884E-05
 1.31000000E+01 -8.97814961E-05 -8.58883966E-05 -8.57600061E-05 -9.30523155E-05  8.10331660E-05
 1.32000000E+01 -9.28594238E-05 -8.88328872E-05 -8.86998839E-05 -9.62417942E-05  8.38191814E-05
 1.33000000E+01 -9.59669960E-05 -9.18056309E-05 -9.16678995E-05 -9.94619803E-05  8.66331896E-05
 1.34000000E+01 -9.91031836E-05 -9.48056432E-05 -9.46630726E-05 -1.02711836E-04  8.94741039E-05
 1.35000000E+01 -1.02266911E-04 -9.78318969E-05 -9.76843811E-05 -1.05990276E-04  9.23407933E-05
 1.36000000E+01 -1.05457051E-04 -1.00883316E-04 -1.00730754E-04 -1.09296167E-04  9.52320780E-05
 1.37000000E+01 -1.08672415E-04 -1.03958769E-04 -1.03801067E-04 -1.12628324E-04  9.81467274E-05
 1.38000000E+01 -1.11911755E-04 -1.07057068E-04 -1.06894138E-04 -1.15985507E-04  1.01083457E-04
 1.39000000E+01 -1.15173763E-04 -1.10176969E-04 -1.10008732E-04 -1.19366419E-04  1.04040923E-04
 1.40000000E+01 -1.18457077E-04 -1.13317176E-04 -1.13143559E-04 -1.22769706E-04  1.07017727E-04
 1.41000000E+01 -1.21760283E-04 -1.16476344E-04 -1.16297283E-04 -1.26193952E-04  1.10012413E-04
 1.42000000E+01 -1.25081915E-04 -1.19653079E-04 -1.19468517E-04 -1.29637678E-04  1.13023465E-04
 1.43000000E+01 -1.28420458E-04 -1.22845934E-04 -1.22655825E-04 -1.33099342E-04  1.16049316E-04
 1.44000000E+01 -1.31774338E-04 -1.26053409E-04 -1.25857715E-04 -1.36577333E-04  1.19088344E-04
 1.45000000E+01 -1.35141916E-04 -1.29273944E-04 -1.29072636E-04 -1.40069975E-04  1.22138876E-04
 1.46000000E+01 -1.38521487E-04 -1.32505914E-04 -1.32298973E-04 -1.43575521E-04  1.25199192E-04
 1.47000000E+01 -1.41911280E-04 -1.35747627E-04 -1.35535045E-04 -1.47092154E-04  1.28267526E-04
 1.48000000E+01 -1.45309453E-04 -1.38997330E-04 -1.38779108E-04 -1.50617987E-04  1.31342061E-04
 1.49000000E+01 -1.48714100E-04 -1.42253203E-04 -1.42029355E-04 -1.54151062E-04  1.34420932E-04
 1.50000000E+01 -1.52123242E-04 -1.45513361E-04 -1.45283908E-04 -1.57689346E-04  1.37502219E-04
 1.51000000E+01 -1.55534833E-04 -1.48775850E-04 -1.48540828E-04 -1.61230736E-04  1.40583949E-04
 1.52000000E+01 -1.58946755E-04 -1.52038650E-04 -1.51798104E-04 -1.64773057E-04  1.43664089E-04
 1.53000000E+01 -1.62356823E-04 -1.55299679E-04 -1.55053665E-04 -1.68314060E-04  1.46740555E-04
 1.54000000E+01 -1.65762789E-04 -1.58556789E-04 -1.58305374E-04 -1.71851428E-04  1.49811209E-04
 1.55000000E+01 -1.69162340E-04 -1.61807775E-04 -1.61551036E-04 -1.75382769E-04  1.52873866E-04
 1.56000000E+01 -1.72553103E-04 -1.65050372E-04 -1.64788398E-04 -1.78905625E-04  1.55926293E-04
 1.57000000E+01 -1.75932645E-04 -1.68282259E-04 -1.68015145E-04 -1.82417467E-04  1.58966220E-04
 1.58000000E+01 -1.79298476E-04 -1.71501059E-04 -1.71228912E-04 -1.85915701E-04  1.61991336E-04
 1.59000000E+01 -1.82648049E-04 -1.74704343E-04 -1.74427277E-04 -1.89397667E-04  1.64999294E-04
 1.60000000E+01 -1.85978763E-04 -1.77889629E-04 -1.77607766E-04 -1.92860642E-04  1.67987718E-04
 1.61000000E+01 -1.89287960E-04 -1.81054380E-04 -1.80767850E-04 -1.96301841E-04  1.70954199E-04
 1.62000000E+01 -1.92572928E-04 -1.84196010E-04 -1.83904948E-04 -1.99718421E-04  1.73896299E-04
 1.63000000E+01 -1.95830902E-04 -1.87311882E-04 -1.87016431E-04 -2.03107484E-04  1.76811546E-04
 1.64000000E+01 -1.99059067E-04 -1.90399310E-04 -1.90099617E-04 -2.06466076E-04  1.79697432E-04
 1.65000000E+01 -2.02254557E-04 -1.93455562E-04 -1.93151779E-04 -2.09791197E-04  1.82551418E-04
 1.66000000E+01 -2.05414458E-04 -1.96477859E-04 -1.96170144E-04 -2.13079796E-04  1.85370929E-04
 1.67000000E+01 -2.08535815E-04 -1.99463383E-04 -1.99151897E-04 -2.16328781E-04  1.88153361E-04
 1.68000000E+01 -2.11615628E-04 -2.02409273E-04 -2.02094182E-04 -2.19535019E-04  1.90896086E-04
 1.69000000E+01 -2.14650867E-04 -2.05312639E-04 -2.04994111E-04 -2.22695340E-04  1.93596458E-04
 1.70000000E+01 -2.17638477E-04 -2.08170564E-04 -2.07848768E-04 -2.25806542E-04  1.96251814E-04
 1.71000000E+01 -2.20575380E-04 -2.10980110E-04 -2.10655219E-04 -2.28865397E-04  1.98859482E-04
 1.72000000E+01 -2.23458489E-04 -2.13738325E-04 -2.13410510E-04 -2.31868647E-04  2.01416788E-04
 1.73000000E+01 -2.26284703E-04 -2.16442243E-04 -2.16111679E-04 -2.34813019E-04  2.03921057E-04
 1.74000000E+01 -2.29050910E-04 -2.19088888E-04 -2.18755748E-04 -2.37695221E-04  2.06369615E-04
 1.75000000E+01 -2.31753988E-04 -2.21675273E-04 -2.21339729E-04 -2.40511949E-04  2.08759798E-04
 1.76000000E+01 -2.34390803E-04 -2.24198396E-04 -2.23860622E-04 -2.43259894E-04  2.11088943E-04
 1.77000000E+01 -2.36958214E-04 -2.26655252E-04 -2.26315419E-04 -2.45935740E-04  2.13354395E-04
 1.78000000E+01 -2.39453077E-04 -2.29042828E-04 -2.28701106E-04 -2.48536176E-04  2.15553501E-04
 1.79000000E+01 -2.41872240E-04 -2.31358105E-04 -2.31014666E-04 -2.51057895E-04  2.17683612E-04
 1.80000000E+01 -2.44212556E-04 -2.33598069E-04 -2.33253079E-04 -2.53497598E-04  2.19742084E-04
 1.81000000E+01 -2.46470885E-04 -2.35759712E-04 -2.35413337E-04 -2.55852004E-04  2.21726282E-04
 1.82000000E+01 -2.48644108E-04 -2.37840043E-04 -2.37492447E-04 -2.58117848E-04  2.23633582E-04
 1.83000000E+01 -2.50729135E-04 -2.39836098E-04 -2.39487444E-04 -2.60291889E-04  2.25461374E-04
 1.84000000E+01 -2.52722908E-04 -2.41744944E-04 -2.41395389E-04 -2.62370912E-04  2.27207070E-04
 1.85000000E+01 -2.54622403E-04 -2.43563678E-04 -2.43213377E-04 -2.64351733E-04  2.28868103E-04
 1.86000000E+01 -2.56424630E-04 -2.45289431E-04 -2.44938535E-04 -2.66231203E-04  2.30441933E-04
 1.87000000E+01 -2.58126631E-04 -2.46919364E-04 -2.46568020E-04 -2.68006213E-04  2.31926047E-04
 1.88000000E+01 -2.59725485E-04 -2.48450675E-04 -2.48099025E-04 -2.69673694E-04  2.33317967E-04
 1.89000000E+01 -2.61218310E-04 -2.49880597E-04 -2.49528780E-04 -2.71230625E-04  2.34615248E-04
 1.90000000E+01 -2.62602265E-04 -2.51206407E-04 -2.50854556E-04 -2.72674034E-04  2.35815486E-04
 1.91000000E+01 -2.63874560E-04 -2.52425429E-04 -2.52073672E-04 -2.74001000E-04  2.36916318E-04
 1.92000000E+01 -2.65032458E-04 -2.53535035E-04 -2.53183498E-04 -2.75208659E-04  2.37915427E-04
 1.93000000E+01 -2.66073274E-04 -2.54532651E-04 -2.54181454E-04 -2.76294206E-04  2.38810544E-04
 1.94000000E+01 -2.66994379E-04 -2.55415756E-04 -2.55065014E-04 -2.77254896E-04  2.39599443E-04
 1.95000000E+01 -2.67793196E-04 -2.56181880E-04 -2.55831704E-04 -2.78088049E-04  2.40279948E-04
 1.96000000E+01 -2.68467207E-04 -2.56828606E-04 -2.56479107E-04 -2.78791049E-04  2.40849925E-04
 1.97000000E+01 -2.69013953E-04 -2.57353578E-04 -2.57004860E-04 -2.79361350E-04  2.41307288E-04
 1.98000000E+01 -2.69431035E-04 -2.57754497E-04 -2.57406662E-04 -2.79796477E-04  2.41649990E-04
 1.99000000E+01 -2.69716124E-04 -2.58029125E-04 -2.57682275E-04 -2.80094024E-04  2.41876027E-04
 2.00000000E+01 -2.69866957E-04 -2.58175296E-04 -2.57829528E-04 -2.80251660E-04  2.41983433E-04
 2.01000000E+01 -2.69881350E-04 -2.58190910E-04 -2.57846322E-04 -2.80267130E-04  2.41970281E-04
 2.02000000E+01 -2.69757191E-04 -2.58073939E-04 -2.57730627E-04 -2.80138253E-04  2.41834684E-04
 2.03000000E+01 -2.69492438E-04 -2.57822423E-04 -2.57480485E-04 -2.79862924E-04  2.41574800E-04
 2.04000000E+01 -2.69085125E-04 -2.57434471E-04 -2.57094003E-04 -2.79439119E-04  2.41188835E-04
 2.05000000E+01 -2.68533356E-04 -2.56908261E-04 -2.56569362E-04 -2.78864887E-04  2.40675052E-04
 2.06000000E+01 -2.67835310E-04 -2.56242042E-04 -2.55904810E-04 -2.78138361E-04  2.40031772E-04
