 # time [a.u.]         RMT-1           RMT-3           RMT-6          SAE
 0.00000000E+00  0.00000000E+00  0.00000000E+00  0.00000000E+00  0.00000000E+00
 1.00000000E-01  1.98906563E-11  1.89549062E-11  1.89267642E-11  2.10103157E-11
 2.00000000E-01  3.14450249E-10  2.99693857E-10  2.99243749E-10  3.13973493E-10
 3.00000000E-01  1.57232943E-09  1.49888784E-09  1.49659471E-09  1.54141892E-09
 4.00000000E-01  4.89776563E-09  4.67042115E-09  4.66309301E-09  4.76370109E-09
 5.00000000E-01  1.17625701E-08  1.12205113E-08  1.12023454E-08  1.14006135E-08
 6.00000000E-01  2.39542919E-08  2.28589186E-08  2.28205450E-08  2.31885195E-08
 7.00000000E-01  4.35234294E-08  4.15488265E-08  4.14762430E-08  4.21352148E-08
 8.00000000E-01  7.27316077E-08  6.94572286E-08  6.93306577E-08  7.04739350E-08
 9.00000000E-01  1.14001036E-07  1.08906155E-07  1.08698876E-07  1.10617478E-07
 1.00000000E+00  1.69867121E-07  1.62326667E-07  1.62003879E-07  1.65113136E-07
 1.10000000E+00  2.42932584E-07  2.32214135E-07  2.31731933E-07  2.36598941E-07
 1.20000000E+00  3.35824919E-07  3.21086650E-07  3.20391171E-07  3.27761624E-07
 1.30000000E+00  4.51157758E-07  4.31447255E-07  4.30474065E-07  4.41296541E-07
 1.40000000E+00  5.91493395E-07  5.65747440E-07  5.64421222E-07  5.79869818E-07
 1.50000000E+00  7.59308201E-07  7.26353567E-07  7.24588160E-07  7.46082837E-07
 1.60000000E+00  9.56963831E-07  9.15519069E-07  9.13217847E-07  9.42439204E-07
 1.70000000E+00  1.18667939E-06  1.13535785E-06  1.13241448E-06  1.17131425E-06
 1.80000000E+00  1.45050438E-06  1.38781868E-06  1.38411827E-06  1.43492715E-06
 1.90000000E+00  1.75029639E-06  1.67466438E-06  1.67008489E-06  1.73531561E-06
 2.00000000E+00  2.08770344E-06  1.99745546E-06  1.99186949E-06  2.07431320E-06
 2.10000000E+00  2.46414814E-06  2.35753578E-06  2.35081244E-06  2.45352931E-06
 2.20000000E+00  2.88081101E-06  2.75601757E-06  2.74802461E-06  2.87433157E-06
 2.30000000E+00  3.33861574E-06  3.19376826E-06  3.18437431E-06  3.33783092E-06
 2.40000000E+00  3.83822181E-06  3.67140424E-06  3.66048100E-06  3.84486903E-06
 2.50000000E+00  4.38002040E-06  4.18928758E-06  4.17671198E-06  4.39600813E-06
 2.60000000E+00  4.96412776E-06  4.74752050E-06  4.73317669E-06  4.99152322E-06
 2.70000000E+00  5.59037952E-06  5.34594050E-06  5.32972181E-06  5.63139644E-06
 2.80000000E+00  6.25832756E-06  5.98411785E-06  5.96592852E-06  6.31531361E-06
 2.90000000E+00  6.96724056E-06  6.66135630E-06  6.64111299E-06  7.04266281E-06
 3.00000000E+00  7.71610956E-06  7.37669810E-06  7.35433116E-06  7.81253491E-06
 3.10000000E+00  8.50365461E-06  8.12893017E-06  8.10438457E-06  8.62372593E-06
 3.20000000E+00  9.32832818E-06  8.91658707E-06  8.88982313E-06  9.47474119E-06
 3.30000000E+00  1.01883172E-05  9.73795282E-06  9.70894685E-06  1.03638010E-05
 3.40000000E+00  1.10815480E-05  1.05910649E-05  1.05598096E-05  1.12888480E-05
 3.50000000E+00  1.20056985E-05  1.14737255E-05  1.14402300E-05  1.22475556E-05
 3.60000000E+00  1.29582142E-05  1.23835152E-05  1.23478051E-05  1.32373383E-05
 3.70000000E+00  1.39363193E-05  1.33178034E-05  1.32799205E-05  1.42553624E-05
 3.80000000E+00  1.49370269E-05  1.42737569E-05  1.42337589E-05  1.52985588E-05
 3.90000000E+00  1.59571497E-05  1.52483504E-05  1.52063101E-05  1.63636353E-05
 4.00000000E+00  1.69933107E-05  1.62383755E-05  1.61943808E-05  1.74470916E-05
 4.10000000E+00  1.80419554E-05  1.72404526E-05  1.71946057E-05  1.85452331E-05
 4.20000000E+00  1.90993684E-05  1.82510457E-05  1.82034625E-05  1.96541871E-05
 4.30000000E+00  2.01616939E-05  1.92664813E-05  1.92172905E-05  2.07699179E-05
 4.40000000E+00  2.12249544E-05  2.02829665E-05  2.02323090E-05  2.18882440E-05
 4.50000000E+00  2.22850653E-05  2.12966026E-05  2.12446304E-05  2.30048539E-05
 4.60000000E+00  2.33378437E-05  2.23033941E-05  2.22502696E-05  2.41153235E-05
 4.70000000E+00  2.43790198E-05  2.32992602E-05  2.32451555E-05  2.52151327E-05
 4.80000000E+00  2.54042506E-05  2.42800480E-05  2.42251442E-05  2.62996830E-05
 4.90000000E+00  2.64091396E-05  2.52415512E-05  2.51860375E-05  2.73643137E-05
 5.00000000E+00  2.73892589E-05  2.61795312E-05  2.61236043E-05  2.84043194E-05
 5.10000000E+00  2.83401673E-05  2.70897351E-05  2.70335978E-05  2.94149662E-05
 5.20000000E+00  2.92574217E-05  2.79679066E-05  2.79117673E-05  3.03915083E-05
 5.30000000E+00  3.01365890E-05  2.88097984E-05  2.87538701E-05  3.13292039E-05
 5.40000000E+00  3.09732585E-05  2.96111847E-05  2.95556840E-05  3.22233305E-05
 5.50000000E+00  3.17630539E-05  3.03678723E-05  3.03130188E-05  3.30692006E-05
 5.60000000E+00  3.25016419E-05  3.10757107E-05  3.10217256E-05  3.38621754E-05
 5.70000000E+00  3.31847440E-05  3.17306018E-05  3.16777076E-05  3.45976796E-05
 5.80000000E+00  3.38081537E-05  3.23285170E-05  3.22769361E-05  3.52712140E-05
 5.90000000E+00  3.43677552E-05  3.28655150E-05  3.28154685E-05  3.58783684E-05
 6.00000000E+00  3.48595373E-05  3.33377542E-05  3.32894609E-05  3.64148335E-05
 6.10000000E+00  3.52796008E-05  3.37415007E-05  3.36951754E-05  3.68764121E-05
 6.20000000E+00  3.56241624E-05  3.40731315E-05  3.40289840E-05  3.72590292E-05
 6.30000000E+00  3.58895552E-05  3.43291356E-05  3.42873692E-05  3.75587418E-05
 6.40000000E+00  3.60722322E-05  3.45061175E-05  3.44669284E-05  3.77717474E-05
 6.50000000E+00  3.61687762E-05  3.46008058E-05  3.45643814E-05  3.78943922E-05
 6.60000000E+00  3.61759107E-05  3.46100630E-05  3.45765814E-05  3.79231776E-05
 6.70000000E+00  3.60905110E-05  3.45308956E-05  3.45005242E-05  3.78547670E-05
 6.80000000E+00  3.59096126E-05  3.43604618E-05  3.43333561E-05  3.76859908E-05
 6.90000000E+00  3.56304159E-05  3.40960751E-05  3.40723778E-05  3.74138508E-05
 7.00000000E+00  3.52502859E-05  3.37352054E-05  3.37150456E-05  3.70355241E-05
 7.10000000E+00  3.47667488E-05  3.32754746E-05  3.32589672E-05  3.65483655E-05
 7.20000000E+00  3.41774897E-05  3.27146554E-05  3.27019012E-05  3.59499100E-05
 7.30000000E+00  3.34803556E-05  3.20506738E-05  3.20417590E-05  3.52378737E-05
 7.40000000E+00  3.26733550E-05  3.12816091E-05  3.12766059E-05  3.44101542E-05
 7.50000000E+00  3.17546544E-05  3.04056904E-05  3.04046571E-05  3.34648303E-05
 7.60000000E+00  3.07225773E-05  2.94212960E-05  2.94242782E-05  3.24001611E-05
 7.70000000E+00  2.95756083E-05  2.83269578E-05  2.83339883E-05  3.12145841E-05
 7.80000000E+00  2.83124005E-05  2.71213667E-05  2.71324669E-05  2.99067129E-05
 7.90000000E+00  2.69317772E-05  2.58033757E-05  2.58185558E-05  2.84753343E-05
 8.00000000E+00  2.54327265E-05  2.43719942E-05  2.43912542E-05  2.69194043E-05
 8.10000000E+00  2.38143890E-05  2.28263781E-05  2.28497091E-05  2.52380445E-05
 8.20000000E+00  2.20760448E-05  2.11658182E-05  2.11932033E-05  2.34305374E-05
 8.30000000E+00  2.02171024E-05  1.93897307E-05  1.94211471E-05  2.14963211E-05
 8.40000000E+00  1.82370968E-05  1.74976553E-05  1.75330750E-05  1.94349838E-05
 8.50000000E+00  1.61356887E-05  1.54892540E-05  1.55286456E-05  1.72462586E-05
 8.60000000E+00  1.39126636E-05  1.33643103E-05  1.34076399E-05  1.49300164E-05
 8.70000000E+00  1.15679322E-05  1.11227293E-05  1.11699613E-05  1.24862604E-05
 8.80000000E+00  9.10153064E-06  8.76453753E-06  8.81563528E-06  9.91511908E-06
 8.90000000E+00  6.51361477E-06  6.28987778E-06  6.34480453E-06  7.21683927E-06
 9.00000000E+00  3.80444932E-06  3.69899943E-06  3.75771901E-06  4.39177959E-06
 9.10000000E+00  9.74396134E-07  9.92247256E-07  1.05472494E-06  1.44040330E-06
 9.20000000E+00 -1.97609507E-06 -1.82994728E-06 -1.76374392E-06 -1.63672869E-06
 9.30000000E+00 -5.04649437E-06 -4.76707339E-06 -4.69717369E-06 -4.83896478E-06
 9.40000000E+00 -8.23620076E-06 -7.81854986E-06 -7.74497916E-06 -8.16556960E-06
 9.50000000E+00 -1.15445480E-05 -1.09837310E-05 -1.09065098E-05 -1.16157309E-05
 9.60000000E+00 -1.49708065E-05 -1.42619091E-05 -1.41810522E-05 -1.51885660E-05
 9.70000000E+00 -1.85141862E-05 -1.76523175E-05 -1.75678328E-05 -1.88831288E-05
 9.80000000E+00 -2.21738394E-05 -2.11541343E-05 -2.10660224E-05 -2.26984152E-05
 9.90000000E+00 -2.59488641E-05 -2.47664855E-05 -2.46747387E-05 -2.66333699E-05
 1.00000000E+01 -2.98383063E-05 -2.84884482E-05 -2.83930495E-05 -3.06868917E-05
 1.01000000E+01 -3.38411612E-05 -3.23190515E-05 -3.22199739E-05 -3.48578389E-05
 1.02000000E+01 -3.79563747E-05 -3.62572784E-05 -3.61544844E-05 -3.91450344E-05
 1.03000000E+01 -4.21828505E-05 -4.03020718E-05 -4.01955122E-05 -4.35472701E-05
 1.04000000E+01 -4.65194628E-05 -4.44523471E-05 -4.43419602E-05 -4.80633114E-05
 1.05000000E+01 -5.09650739E-05 -4.87070068E-05 -4.85927173E-05 -5.26919010E-05
 1.06000000E+01 -5.55185425E-05 -5.30649494E-05 -5.29466672E-05 -5.74317619E-05
 1.07000000E+01 -6.01787196E-05 -5.75250648E-05 -5.74026845E-05 -6.22816005E-05
 1.08000000E+01 -6.49444386E-05 -6.20862266E-05 -6.19596265E-05 -6.72401092E-05
 1.09000000E+01 -6.98145086E-05 -6.67472855E-05 -6.66163273E-05 -7.23059679E-05
 1.10000000E+01 -7.47877095E-05 -7.15070652E-05 -7.13715944E-05 -7.74778455E-05
 1.11000000E+01 -7.98627906E-05 -7.63643604E-05 -7.62242065E-05 -8.27544012E-05
 1.12000000E+01 -8.50384737E-05 -8.13179398E-05 -8.11729166E-05 -8.81342843E-05
 1.13000000E+01 -9.03134579E-05 -8.63665493E-05 -8.62164556E-05 -9.36161346E-05
 1.14000000E+01 -9.56864246E-05 -9.15089167E-05 -9.13535370E-05 -9.91985815E-05
 1.15000000E+01 -1.01156040E-04 -9.67437540E-05 -9.65828593E-05 -1.04880243E-04
 1.16000000E+01 -1.06720957E-04 -1.02069758E-04 -1.01903107E-04 -1.10659724E-04
 1.17000000E+01 -1.12379815E-04 -1.07485612E-04 -1.07312950E-04 -1.16535615E-04
 1.18000000E+01 -1.18131236E-04 -1.12989982E-04 -1.12811045E-04 -1.22506488E-04
 1.19000000E+01 -1.23973825E-04 -1.18581510E-04 -1.18396025E-04 -1.28570895E-04
 1.20000000E+01 -1.29906156E-04 -1.24258815E-04 -1.24066499E-04 -1.34727365E-04
 1.21000000E+01 -1.35926770E-04 -1.30020481E-04 -1.29821043E-04 -1.40974399E-04
 1.22000000E+01 -1.42034163E-04 -1.35865048E-04 -1.35658194E-04 -1.47310465E-04
 1.23000000E+01 -1.48226783E-04 -1.41791012E-04 -1.41576444E-04 -1.53733998E-04
 1.24000000E+01 -1.54503026E-04 -1.47796822E-04 -1.47574241E-04 -1.60243390E-04
 1.25000000E+01 -1.60861233E-04 -1.53880875E-04 -1.53649980E-04 -1.66836988E-04
 1.26000000E+01 -1.67299686E-04 -1.60041512E-04 -1.59802005E-04 -1.73513088E-04
 1.27000000E+01 -1.73816598E-04 -1.66277010E-04 -1.66028594E-04 -1.80269928E-04
 1.28000000E+01 -1.80410117E-04 -1.72585587E-04 -1.72327970E-04 -1.87105686E-04
 1.29000000E+01 -1.87078328E-04 -1.78965401E-04 -1.78698295E-04 -1.94018471E-04
 1.30000000E+01 -1.93819249E-04 -1.85414549E-04 -1.85137671E-04 -2.01006318E-04
 1.31000000E+01 -2.00630830E-04 -1.91931062E-04 -1.91644140E-04 -2.08067182E-04
 1.32000000E+01 -2.07510946E-04 -1.98512903E-04 -1.98215669E-04 -2.15198932E-04
 1.33000000E+01 -2.14457389E-04 -2.05157959E-04 -2.04850156E-04 -2.22399345E-04
 1.34000000E+01 -2.21467861E-04 -2.11864031E-04 -2.11545410E-04 -2.29666099E-04
 1.35000000E+01 -2.28539961E-04 -2.18628825E-04 -2.18299149E-04 -2.36996770E-04
 1.36000000E+01 -2.35671170E-04 -2.25449937E-04 -2.25108981E-04 -2.44388821E-04
 1.37000000E+01 -2.42858835E-04 -2.32324842E-04 -2.31972395E-04 -2.51839603E-04
 1.38000000E+01 -2.50100166E-04 -2.39250885E-04 -2.38886751E-04 -2.59346343E-04
 1.39000000E+01 -2.57392245E-04 -2.46225288E-04 -2.45849289E-04 -2.66906144E-04
 1.40000000E+01 -2.64732026E-04 -2.53245157E-04 -2.52857130E-04 -2.74515975E-04
 1.41000000E+01 -2.72116353E-04 -2.60307487E-04 -2.59907288E-04 -2.82172671E-04
 1.42000000E+01 -2.79541953E-04 -2.67409160E-04 -2.66996666E-04 -2.89872925E-04
 1.43000000E+01 -2.87005437E-04 -2.74546951E-04 -2.74122055E-04 -2.97613288E-04
 1.44000000E+01 -2.94503290E-04 -2.81717506E-04 -2.81280124E-04 -3.05390161E-04
 1.45000000E+01 -3.02031853E-04 -2.88917339E-04 -2.88467406E-04 -3.13199792E-04
 1.46000000E+01 -3.09587317E-04 -2.96142819E-04 -2.95680292E-04 -3.21038277E-04
 1.47000000E+01 -3.17165722E-04 -3.03390169E-04 -3.02915030E-04 -3.28901554E-04
 1.48000000E+01 -3.24762956E-04 -3.10655470E-04 -3.10167723E-04 -3.36785403E-04
 1.49000000E+01 -3.32374759E-04 -3.17934658E-04 -3.17434330E-04 -3.44685443E-04
 1.50000000E+01 -3.39996711E-04 -3.25223518E-04 -3.24710661E-04 -3.52597132E-04
 1.51000000E+01 -3.47624238E-04 -3.32517687E-04 -3.31992378E-04 -3.60515767E-04
 1.52000000E+01 -3.55252609E-04 -3.39812653E-04 -3.39274993E-04 -3.68436483E-04
 1.53000000E+01 -3.62876944E-04 -3.47103759E-04 -3.46553873E-04 -3.76354254E-04
 1.54000000E+01 -3.70492215E-04 -3.54386210E-04 -3.53824248E-04 -3.84263895E-04
 1.55000000E+01 -3.78093259E-04 -3.61655078E-04 -3.61081212E-04 -3.92160061E-04
 1.56000000E+01 -3.85674772E-04 -3.68905302E-04 -3.68319728E-04 -4.00037255E-04
 1.57000000E+01 -3.93231316E-04 -3.76131694E-04 -3.75534628E-04 -4.07889822E-04
 1.58000000E+01 -4.00757327E-04 -3.83328943E-04 -3.82720623E-04 -4.15711961E-04
 1.59000000E+01 -4.08247117E-04 -3.90491623E-04 -3.89872303E-04 -4.23497725E-04
 1.60000000E+01 -4.15694869E-04 -3.97614185E-04 -3.96984139E-04 -4.31241024E-04
 1.61000000E+01 -4.23094646E-04 -4.04690964E-04 -4.04050480E-04 -4.38935632E-04
 1.62000000E+01 -4.30440386E-04 -4.11716177E-04 -4.11065559E-04 -4.46575193E-04
 1.63000000E+01 -4.37725913E-04 -4.18683932E-04 -4.18023497E-04 -4.54153224E-04
 1.64000000E+01 -4.44944932E-04 -4.25588227E-04 -4.24918305E-04 -4.61663125E-04
 1.65000000E+01 -4.52091041E-04 -4.32422955E-04 -4.31743888E-04 -4.69098181E-04
 1.66000000E+01 -4.59157729E-04 -4.39181910E-04 -4.38494048E-04 -4.76451575E-04
 1.67000000E+01 -4.66138387E-04 -4.45858788E-04 -4.45162492E-04 -4.83716392E-04
 1.68000000E+01 -4.73026315E-04 -4.52447201E-04 -4.51742840E-04 -4.90885624E-04
 1.69000000E+01 -4.79814741E-04 -4.58940688E-04 -4.58228637E-04 -4.97952187E-04
 1.70000000E+01 -4.86496835E-04 -4.65332728E-04 -4.64613367E-04 -5.04908921E-04
 1.71000000E+01 -4.93065722E-04 -4.71616756E-04 -4.70890469E-04 -5.11748603E-04
 1.72000000E+01 -4.99514497E-04 -4.77786174E-04 -4.77053347E-04 -5.18463955E-04
 1.73000000E+01 -5.05836233E-04 -4.83834355E-04 -4.83095375E-04 -5.25047652E-04
 1.74000000E+01 -5.12023974E-04 -4.89754647E-04 -4.89009901E-04 -5.31492337E-04
 1.75000000E+01 -5.18070742E-04 -4.95540370E-04 -4.94790246E-04 -5.37790622E-04
 1.76000000E+01 -5.23969532E-04 -5.01184821E-04 -5.00429704E-04 -5.43935105E-04
 1.77000000E+01 -5.29713326E-04 -5.06681279E-04 -5.05921552E-04 -5.49918376E-04
 1.78000000E+01 -5.35295092E-04 -5.12023009E-04 -5.11259054E-04 -5.55733028E-04
 1.79000000E+01 -5.40707791E-04 -5.17203268E-04 -5.16435464E-04 -5.61371666E-04
 1.80000000E+01 -5.45944383E-04 -5.22215314E-04 -5.21444035E-04 -5.66826917E-04
 1.81000000E+01 -5.50997853E-04 -5.27052424E-04 -5.26278043E-04 -5.72091441E-04
 1.82000000E+01 -5.55861230E-04 -5.31707916E-04 -5.30930798E-04 -5.77157940E-04
 1.83000000E+01 -5.60527604E-04 -5.36175163E-04 -5.35395670E-04 -5.82019164E-04
 1.84000000E+01 -5.64990140E-04 -5.40447607E-04 -5.39666093E-04 -5.86667926E-04
 1.85000000E+01 -5.69242079E-04 -5.44518761E-04 -5.43735571E-04 -5.91097108E-04
 1.86000000E+01 -5.73276738E-04 -5.48382211E-04 -5.47597682E-04 -5.95299668E-04
 1.87000000E+01 -5.77087505E-04 -5.52031612E-04 -5.51246072E-04 -5.99268651E-04
 1.88000000E+01 -5.80667849E-04 -5.55460696E-04 -5.54674464E-04 -6.02997199E-04
 1.89000000E+01 -5.84011326E-04 -5.58663283E-04 -5.57876666E-04 -6.06478554E-04
 1.90000000E+01 -5.87111588E-04 -5.61633282E-04 -5.60846580E-04 -6.09706071E-04
 1.91000000E+01 -5.89962397E-04 -5.64364710E-04 -5.63578210E-04 -6.12673219E-04
 1.92000000E+01 -5.92557632E-04 -5.66851695E-04 -5.66065675E-04 -6.15373595E-04
 1.93000000E+01 -5.94891292E-04 -5.69088482E-04 -5.68303211E-04 -6.17800924E-04
 1.94000000E+01 -5.96957499E-04 -5.71069432E-04 -5.70285168E-04 -6.19949071E-04
 1.95000000E+01 -5.98750492E-04 -5.72789023E-04 -5.72006016E-04 -6.21812040E-04
 1.96000000E+01 -6.00264640E-04 -5.74241855E-04 -5.73460349E-04 -6.23383985E-04
 1.97000000E+01 -6.01494445E-04 -5.75422656E-04 -5.74642885E-04 -6.24659213E-04
 1.98000000E+01 -6.02434544E-04 -5.76326285E-04 -5.75548478E-04 -6.25632187E-04
 1.99000000E+01 -6.03079725E-04 -5.76947743E-04 -5.76172125E-04 -6.26297529E-04
 2.00000000E+01 -6.03424935E-04 -5.77282179E-04 -5.76508970E-04 -6.26650028E-04
 2.01000000E+01 -6.03465285E-04 -5.77324903E-04 -5.76554320E-04 -6.26684638E-04
 2.02000000E+01 -6.03196052E-04 -5.77071377E-04 -5.76303637E-04 -6.26396484E-04
 2.03000000E+01 -6.02612672E-04 -5.76517219E-04 -5.75752537E-04 -6.25780861E-04
 2.04000000E+01 -6.01710745E-04 -5.75658200E-04 -5.74896793E-04 -6.24833239E-04
 2.05000000E+01 -6.00486032E-04 -5.74490244E-04 -5.73732330E-04 -6.23549261E-04
 2.06000000E+01 -5.98934460E-04 -5.73009434E-04 -5.72255235E-04 -6.21924747E-04
 2.07000000E+01 -5.97052123E-04 -5.71212013E-04 -5.70461758E-04 -6.19955689E-04
 2.08000000E+01 -5.94835279E-04 -5.69094382E-04 -5.68348304E-04 -6.17638260E-04
 2.09000000E+01 -5.92280342E-04 -5.66653091E-04 -5.65911431E-04 -6.14968805E-04
 2.10000000E+01 -5.89383873E-04 -5.63884834E-04 -5.63147843E-04 -6.11943844E-04
 2.11000000E+01 -5.86142586E-04 -5.60786455E-04 -5.60054394E-04 -6.08560072E-04
 2.12000000E+01 -5.82553353E-04 -5.57354949E-04 -5.56628089E-04 -6.04814356E-04
 2.13000000E+01 -5.78613200E-04 -5.53587461E-04 -5.52866086E-04 -6.00703734E-04
 2.14000000E+01 -5.74319315E-04 -5.49481293E-04 -5.48765699E-04 -5.96225413E-04
 2.15000000E+01 -5.69669049E-04 -5.45033907E-04 -5.44324404E-04 -5.91376769E-04
 2.16000000E+01 -5.64659921E-04 -5.40242925E-04 -5.39539836E-04 -5.86155341E-04
 2.17000000E+01 -5.59289617E-04 -5.35106133E-04 -5.34409794E-04 -5.80558833E-04
 2.18000000E+01 -5.53555992E-04 -5.29621480E-04 -5.28932242E-04 -5.74585109E-04
 2.19000000E+01 -5.47457068E-04 -5.23787075E-04 -5.23105301E-04 -5.68232190E-04
 2.20000000E+01 -5.40991027E-04 -5.17601186E-04 -5.16927253E-04 -5.61498255E-04
 2.21000000E+01 -5.34156200E-04 -5.11062221E-04 -5.10396522E-04 -5.54381633E-04
 2.22000000E+01 -5.26951054E-04 -5.04168726E-04 -5.03511669E-04 -5.46880807E-04
 2.23000000E+01 -5.19374185E-04 -4.96919375E-04 -4.96271383E-04 -5.38994406E-04
 2.24000000E+01 -5.11424314E-04 -4.89312963E-04 -4.88674478E-04 -5.30721204E-04
 2.25000000E+01 -5.03100292E-04 -4.81348414E-04 -4.80719895E-04 -5.22060119E-04
 2.26000000E+01 -4.94401108E-04 -4.73024785E-04 -4.72406709E-04 -5.13010211E-04
 2.27000000E+01 -4.85325888E-04 -4.64341264E-04 -4.63734127E-04 -5.03570677E-04
 2.28000000E+01 -4.75873900E-04 -4.55297174E-04 -4.54701488E-04 -4.93740853E-04
 2.29000000E+01 -4.66044556E-04 -4.45891973E-04 -4.45308268E-04 -4.83520207E-04
 2.30000000E+01 -4.55837412E-04 -4.36125258E-04 -4.35554083E-04 -4.72908346E-04
 2.31000000E+01 -4.45252174E-04 -4.25996764E-04 -4.25438686E-04 -4.61905003E-04
 2.32000000E+01 -4.34288684E-04 -4.15506359E-04 -4.14961961E-04 -4.50510049E-04
 2.33000000E+01 -4.22946919E-04 -4.04654039E-04 -4.04123921E-04 -4.38723480E-04
 2.34000000E+01 -4.11226987E-04 -3.93439922E-04 -3.92924699E-04 -4.26545428E-04
 2.35000000E+01 -3.99129125E-04 -3.81864250E-04 -3.81364554E-04 -4.13976151E-04
 2.36000000E+01 -3.86653695E-04 -3.69927386E-04 -3.69443861E-04 -4.01016040E-04
 2.37000000E+01 -3.73801184E-04 -3.57629813E-04 -3.57163119E-04 -3.87665616E-04
 2.38000000E+01 -3.60572207E-04 -3.44972135E-04 -3.44522943E-04 -3.73925532E-04
 2.39000000E+01 -3.46967513E-04 -3.31955086E-04 -3.31524077E-04 -3.59796577E-04
 2.40000000E+01 -3.32987993E-04 -3.18579532E-04 -3.18167397E-04 -3.45279671E-04
 2.41000000E+01 -3.18634690E-04 -3.04846486E-04 -3.04453921E-04 -3.30375874E-04
 2.42000000E+01 -3.03908802E-04 -2.90757104E-04 -2.90384815E-04 -3.15086382E-04
 2.43000000E+01 -2.88811679E-04 -2.76312690E-04 -2.75961384E-04 -2.99412538E-04
 2.44000000E+01 -2.73344811E-04 -2.61514685E-04 -2.61185069E-04 -2.83355824E-04
 2.45000000E+01 -2.57509827E-04 -2.46364664E-04 -2.46057446E-04 -2.66917873E-04
 2.46000000E+01 -2.41308489E-04 -2.30864331E-04 -2.30580218E-04 -2.50100471E-04
 2.47000000E+01 -2.24742700E-04 -2.15015527E-04 -2.14755223E-04 -2.32905556E-04
 2.48000000E+01 -2.07814518E-04 -1.98820243E-04 -1.98584446E-04 -2.15335229E-04
